Wavelength,%T
320,22.98640013
320.5,32.33759999
321,41.68879986
321.5,51.63350105
322,58.02990198
322.5,57.3251009
323,49.20339882
323.5,39.1741991
324,30.46250045
324.5,24.56499934
325,21.09940052
325.5,19.39650029
326,19.08089966
326.5,19.98510063
327,22.2250998
327.5,26.17009878
328,33.07720125
328.5,42.02769995
329,53.19160223
329.5,65.05720019
330,74.37800169
330.5,77.90139914
331,74.70470071
331.5,66.91650152
332,57.93099999
332.5,50.16419888
333,44.06369925
333.5,40.81220031
334,39.20600116
334.5,39.23630118
335,40.86869955
335.5,43.96469891
336,48.27460051
336.5,52.86530256
337,56.40990138
337.5,57.61989951
338,55.61400056
338.5,51.29579902
339,45.7502991
339.5,39.97240067
340,34.55710113
340.5,29.52879965
341,25
341.5,21.06299996
342,17.55580008
342.5,14.17170018
343,10.81570014
343.5,8.197499812
344,6.082829833
344.5,4.427580163
345,3.221049905
345.5,2.347240038
346,1.757810079
346.5,1.325280033
347,1.028969977
347.5,0.817504991
348,0.65098498
348.5,0.524243992
349,0.44333199
349.5,0.413969997
350,0.359720993
350.5,0.327073992
351,0.305701001
351.5,0.266591995
352,0.256553991
352.5,0.254386989
353,0.244378997
353.5,0.231831009
354,0.228694989
354.5,0.237395009
355,0.225375989
355.5,0.232386007
356,0.236996007
356.5,0.252399989
357,0.277263997
357.5,0.304580992
358,0.330655999
358.5,0.360188005
359,0.389543991
359.5,0.46412698
360,0.541967992
360.5,0.636577001
361,0.763292983
361.5,0.959973037
362,1.213639975
362.5,1.563980058
363,2.084710076
363.5,2.904910035
364,3.998269886
364.5,5.531169847
365,7.625780255
365.5,10.40519997
366,13.87590021
366.5,17.71250069
367,21.79660052
367.5,25.95190108
368,29.13759947
368.5,31.90590143
369,34.48309898
369.5,37.18290031
370,40.32970071
370.5,44.00529861
371,48.54179919
371.5,54.18319702
372,59.32670236
372.5,64.22129869
373,68.66840124
373.5,72.37949967
374,75.56980252
374.5,78.39720249
375,81.09639883
375.5,83.68729949
376,85.78060269
376.5,87.7481997
377,89.63860273
377.5,91.19240046
378,92.65019894
378.5,93.918401
379,95.06260157
379.5,95.83010077
380,95.96499801
380.5,96.43809795
381,96.65690064
381.5,96.54930234
382,96.55150175
382.5,96.65660262
383,96.08709812
383.5,95.50020099
384,95.18380165
384.5,94.91329789
385,95.46710253
385.5,95.36610246
386,95.54290175
386.5,95.6929028
387,96.03959918
387.5,96.61970139
388,97.03789949
388.5,97.42720127
389,97.59879708
389.5,97.54499793
390,97.37709761
390.5,97.3033011
391,97.40309715
391.5,97.39519954
392,97.18459845
392.5,96.65250182
393,96.07809782
393.5,95.80519795
394,95.76680064
394.5,95.59640288
395,95.53729892
395.5,95.69600224
396,95.91159821
396.5,96.14769816
397,96.5035975
397.5,96.88820243
398,97.03429937
398.5,97.39800096
399,97.34609723
399.5,97.54019976
400,97.81879783
400.5,97.89379835
401,97.91110158
401.5,98.02929759
402,97.85929918
402.5,97.56000042
403,97.56060243
403.5,97.69560099
404,97.78040051
404.5,97.52600193
405,97.16709852
405.5,96.89450264
406,96.89999819
406.5,97.05139995
407,97.11520076
407.5,97.06709981
408,97.09860086
408.5,96.97409868
409,97.06180096
409.5,96.90880179
410,96.72690034
410.5,96.51079774
411,96.30979896
411.5,96.32430077
412,96.4376986
412.5,96.44579887
413,96.23150229
413.5,96.02829814
414,95.92779875
414.5,96.0120976
415,96.25350237
415.5,96.5478003
416,96.73889875
416.5,96.96930051
417,97.19629884
417.5,97.0911026
418,97.23299742
418.5,97.60789871
419,97.85730243
419.5,97.93180227
420,98.15199971
420.5,98.28510284
421,98.23349714
421.5,98.04700017
422,97.79310226
422.5,97.57570028
423,97.47629762
423.5,97.58970141
424,97.7388978
424.5,97.78689742
425,97.74450064
425.5,97.63709903
426,97.54809737
426.5,97.46109843
427,97.46090174
427.5,97.61260152
428,97.66690135
428.5,97.62480259
429,97.60810137
429.5,97.73830175
430,97.67850041
430.5,97.50229716
431,97.57969975
431.5,97.67370224
432,97.48669863
432.5,97.39750028
433,97.4101007
433.5,97.36390114
434,97.24969864
434.5,97.10879922
435,96.6989994
435.5,96.21660113
436,96.06590271
436.5,96.12699747
437,96.07030153
437.5,96.07170224
438,96.06389999
438.5,95.94929814
439,96.12190127
439.5,96.25499845
440,96.15669847
440.5,96.27599716
441,96.74620032
441.5,97.24050164
442,97.4545002
442.5,97.458601
443,97.68019915
443.5,97.80349731
444,97.89159894
444.5,97.94129729
445,97.92690277
445.5,97.96079993
446,98.01629782
446.5,98.14990163
447,98.27970266
447.5,98.2656002
448,98.24929833
448.5,98.18710089
449,98.22210073
449.5,98.3750999
450,98.40769768
450.5,98.34970236
451,98.22430015
451.5,98.30669761
452,98.44290018
452.5,98.43789935
453,98.31230044
453.5,98.1844008
454,97.89170027
454.5,98.02719951
455,98.08480144
455.5,98.1554985
456,98.36069942
456.5,98.05449843
457,97.92079926
457.5,98.15229774
458,98.23089838
458.5,97.98750281
459,97.61840105
459.5,97.45270014
460,97.52870202
460.5,97.33620286
461,97.04790115
461.5,96.91439867
462,96.92479968
462.5,96.95330262
463,96.84709907
463.5,96.68869972
464,96.61819935
464.5,96.42530084
465,96.26160264
465.5,96.29600048
466,96.46980166
466.5,96.52860165
467,96.3613987
467.5,96.21639848
468,96.27090096
468.5,96.38190269
469,96.33280039
469.5,96.50880098
470,96.70689702
470.5,96.6983974
471,96.57130241
471.5,96.61729932
472,96.82610035
472.5,96.94060087
473,97.13670015
473.5,97.25310206
474,97.32360244
474.5,97.13100195
475,96.94669843
475.5,96.94319963
476,96.97380066
476.5,96.96409702
477,96.7154026
477.5,96.54600024
478,96.40960097
478.5,96.30699754
479,96.330899
479.5,96.31509781
480,96.15169764
480.5,96.03310227
481,96.08139992
481.5,96.23699784
482,96.22189999
482.5,96.11049891
483,96.0991025
483.5,96.01299763
484,96.064502
484.5,96.17739916
485,96.24400139
485.5,96.20519876
486,96.13249898
486.5,96.06140256
487,96.07539773
487.5,96.10289931
488,96.14660144
488.5,96.18080258
489,96.15280032
489.5,96.14560008
490,96.2288022
490.5,96.36489749
491,96.50890231
491.5,96.79830074
492,97.15769887
492.5,97.43570089
493,97.54049778
493.5,97.66790271
494,97.72959948
494.5,97.68419862
495,97.81479836
495.5,97.92029858
496,97.94870019
496.5,97.92770147
497,97.99090028
497.5,98.20629954
498,98.38029742
498.5,98.52020144
499,98.59820008
499.5,98.61800075
500,98.74619842
500.5,98.7694025
501,98.77669811
501.5,98.86969924
502,98.87790084
502.5,98.86689782
503,98.84679914
503.5,98.89910221
504,99.00000095
504.5,98.91350269
505,98.79680276
505.5,98.71330261
506,98.57419729
506.5,98.49489927
507,98.45560193
507.5,98.45539927
508,98.48039746
508.5,98.49749804
509,98.55440259
509.5,98.37870002
510,98.13370109
510.5,98.09820056
511,98.12930226
511.5,98.13889861
512,98.04310203
512.5,97.94219732
513,97.90130258
513.5,97.83769846
514,97.76579738
514.5,97.676301
515,97.65269756
515.5,97.65279889
516,97.74249792
516.5,97.87080288
517,97.84139991
517.5,97.84520268
518,97.89990187
518.5,97.94639945
519,97.93310165
519.5,97.85109758
520,97.75930047
520.5,97.63560295
521,97.48269916
521.5,97.36019969
522,97.36539721
522.5,97.46819735
523,97.52410054
523.5,97.57130146
524,97.56810069
524.5,97.54199982
525,97.5786984
525.5,97.59950042
526,97.59780169
526.5,97.65819907
527,97.74270058
527.5,97.81640172
528,97.83769846
528.5,97.8392005
529,97.9155004
529.5,98.03469777
530,98.14869761
530.5,98.18919897
531,98.24690223
531.5,98.36620092
532,98.40030074
532.5,98.48669767
533,98.427701
533.5,98.09030294
534,97.95160294
534.5,97.98809886
535,98.08729887
535.5,98.18130136
536,98.19219708
536.5,98.20190072
537,98.0930984
537.5,97.94210196
538,97.98510075
538.5,97.86890149
539,97.65220284
539.5,97.58870006
540,97.53800035
540.5,97.28090167
541,97.07360268
541.5,96.64000273
542,96.24689817
542.5,96.12830281
543,95.82129717
543.5,95.59460282
544,95.38350105
544.5,95.17710209
545,95.05800009
545.5,94.8423028
546,94.80819702
546.5,94.54489946
547,94.11640167
547.5,93.82429719
548,93.91729832
548.5,94.0605998
549,93.9751029
549.5,93.97079945
550,93.95629764
550.5,94.08770204
551,94.25449967
551.5,94.42139864
552,94.56580281
552.5,95.20000219
553,95.40259838
553.5,95.51320076
554,95.90169787
554.5,95.97880244
555,96.45029902
555.5,96.58600092
556,97.06779718
556.5,97.27579951
557,97.3518014
557.5,97.72840142
558,97.86099792
558.5,97.93180227
559,97.93850183
559.5,98.06950092
560,98.37350249
560.5,98.64789844
561,98.60579967
561.5,98.86000156
562,98.80200028
562.5,98.48279953
563,98.2288003
563.5,98.02029729
564,97.75320292
564.5,97.27169871
565,96.96909785
565.5,96.77050114
566,96.49270177
566.5,95.90849876
567,95.44219971
567.5,94.9845016
568,94.42359805
568.5,93.9094007
569,93.55289936
569.5,93.25749874
570,92.8211987
570.5,92.61479974
571,92.48510003
571.5,92.11800098
572,91.76539779
572.5,91.50699973
573,91.54139757
573.5,91.49230123
574,91.45609736
574.5,91.60529971
575,91.78900123
575.5,91.87020063
576,92.25260019
576.5,92.73710251
577,93.11619997
577.5,93.2667017
578,93.5157001
578.5,93.97779703
579,94.32160258
579.5,94.52639818
580,94.76619959
580.5,95.13199925
581,95.47380209
581.5,95.62559724
582,95.64689994
582.5,95.65820098
583,95.79740167
583.5,95.84069848
584,95.74620128
584.5,95.75939775
585,95.51730156
585.5,95.2557981
586,95.27969956
586.5,95.08370161
587,94.62609887
587.5,94.11200285
588,93.79130006
588.5,93.21759939
589,92.34169722
589.5,91.91079736
590,91.4929986
590.5,90.92509747
591,90.42649865
591.5,90.06260037
592,89.7300005
592.5,89.44730163
593,89.22820091
593.5,89.00120258
594,88.86529803
594.5,88.77530098
595,88.91000152
595.5,89.30320144
596,89.73069787
596.5,90.08209705
597,90.45829773
597.5,91.07450247
598,92.53460169
598.5,92.57969856
599,92.87109971
599.5,93.29460263
600,93.67240071
600.5,93.97420287
601,94.08050179
601.5,93.9522028
602,93.57529879
602.5,92.76499748
603,91.60140157
603.5,90.00859857
604,88.10780048
604.5,85.78900099
605,82.99360275
605.5,79.80139852
606,76.50610209
606.5,73.3314991
607,69.97780204
607.5,66.65199995
608,63.23819757
608.5,59.6898973
609,56.13750219
609.5,52.75049806
610,49.45380092
610.5,46.42640054
611,43.37199926
611.5,40.59219956
612,37.77840137
612.5,35.18249989
613,32.71870017
613.5,30.46970069
614,28.19409966
614.5,26.25859976
615,24.37240034
615.5,22.79420048
616,21.22830004
616.5,19.84589994
617,18.47739965
617.5,17.28309989
618,16.12769961
618.5,15.15319943
619,14.19250071
619.5,13.37849945
620,12.6086995
620.5,11.91020012
621,11.22630015
621.5,10.65730006
622,10.05240008
622.5,9.553109854
623,9.070429951
623.5,8.646389842
624,8.252450079
624.5,7.874420285
625,7.538039982
625.5,7.213950157
626,6.908719987
626.5,6.642899662
627,6.39057979
627.5,6.166769937
628,5.944750085
628.5,5.724940076
629,5.51639013
629.5,5.334080011
630,5.165300146
630.5,4.994529858
631,4.855509847
631.5,4.720979929
632,4.597219825
632.5,4.482010007
633,4.372410104
633.5,4.264120013
634,4.174759984
634.5,4.086200148
635,4.000410065
635.5,3.925779834
636,3.855080158
636.5,3.760670125
637,3.711539879
637.5,3.601000085
638,3.57385017
638.5,3.44035998
639,3.429539874
639.5,3.31520997
640,3.273160011
640.5,3.243109956
641,3.218080103
641.5,3.186849877
642,3.170999885
642.5,3.165990114
643,3.148169816
643.5,3.140180185
644,3.142670169
644.5,3.153380007
645,3.156369925
645.5,3.165569901
646,3.180100024
646.5,3.18528004
647,3.182920069
647.5,3.198539838
648,3.226609901
648.5,3.255319968
649,3.286460042
649.5,3.317840025
650,3.426190093
650.5,3.563980013
651,3.63259986
651.5,3.717850149
652,3.793900087
652.5,3.851670027
653,3.92219983
653.5,3.995649889
654,4.067790136
654.5,4.131510109
655,4.21563983
655.5,4.308120161
656,4.398259893
656.5,4.497839883
657,4.602289945
657.5,4.723609984
658,4.838670045
658.5,4.965019971
659,5.097740144
659.5,5.238800123
660,5.394420028
660.5,5.558450148
661,5.740879849
661.5,5.935040116
662,6.135819852
662.5,6.363800168
663,6.593990326
663.5,6.818369776
664,7.055909932
664.5,7.321210206
665,7.617539912
665.5,7.916750014
666,8.230850101
666.5,8.564580232
667,8.924079686
667.5,9.295950085
668,9.690610319
668.5,10.13289988
669,10.58069989
669.5,11.04419976
670,11.56219989
670.5,12.12719977
671,12.72259951
671.5,13.31910044
672,13.96320015
672.5,14.68490064
673,15.38529992
673.5,16.14339948
674,17.02249944
674.5,17.87690073
675,18.72619987
675.5,19.68140006
676,20.70319951
676.5,21.79159969
677,22.88549989
677.5,24.00829941
678,25.27520061
678.5,26.51500106
679,27.69210041
679.5,29.02980149
680,30.3734988
680.5,31.71339929
681,33.16270113
681.5,34.582901
682,36.07789874
682.5,37.55620122
683,38.96729946
683.5,40.44339955
684,41.88030064
684.5,43.20070148
685,44.51569915
685.5,45.77780068
686,47.22749889
686.5,48.69489968
687,50.11119843
687.5,51.48159862
688,52.69539952
688.5,53.86170149
689,55.15400171
689.5,56.47630095
690,57.72809982
690.5,59.06040072
691,60.41210294
691.5,61.70819998
692,62.95220256
692.5,64.28819895
693,65.76510072
693.5,67.33670235
694,69.07610297
694.5,70.91810107
695,72.93499708
695.5,74.83950257
696,76.74229741
696.5,78.9000988
697,80.8818996
697.5,82.70360231
698,84.60890055
698.5,86.43490076
699,88.03129792
699.5,89.39880133
700,90.62719941
700.5,91.80909991
701,92.88949966
701.5,93.68770123
702,94.24999952
702.5,94.45800185
703,94.29270029
703.5,94.25140023
704,94.04739738
704.5,93.93029809
705,93.90699863
705.5,93.65530014
706,93.0339992
706.5,92.70660281
707,92.67920256
707.5,92.45939851
708,92.11980104
708.5,91.79069996
709,91.49749875
709.5,91.04009867
710,90.52659869
710.5,90.31530023
711,90.02180099
711.5,89.92670178
712,89.82160091
712.5,89.67440128
713,89.59190249
713.5,89.74350095
714,90.17320275
714.5,90.26790261
715,90.40369987
715.5,90.4606998
716,90.32189846
716.5,90.26619792
717,90.48349857
717.5,90.78530073
718,91.36260152
718.5,91.63789749
719,91.49680138
719.5,91.48460031
720,91.76239967
720.5,91.99119806
721,92.31020212
721.5,92.79549718
722,93.0824995
722.5,93.25500131
723,93.57020259
723.5,93.85640025
724,94.03319955
724.5,94.07830238
725,94.04249787
725.5,94.25230026
726,94.34049726
726.5,94.37180161
727,94.45559978
727.5,94.52120066
728,94.43200231
728.5,94.39079762
729,94.40339804
729.5,94.19260025
730,94.14629936
730.5,94.1272974
731,94.01199818
731.5,94.04730201
732,93.84760261
732.5,93.78970265
733,93.45309734
733.5,93.35380197
734,93.28969717
734.5,92.99219847
735,92.61369705
735.5,92.40480065
736,92.24269986
736.5,92.1875
737,91.99709892
737.5,91.88380241
738,91.72999859
738.5,91.41510129
739,91.16280079
739.5,91.08970165
740,90.89890122
740.5,90.69960117
741,90.42130113
741.5,90.38109779
742,90.16739726
742.5,89.96189833
743,89.81739879
743.5,89.61489797
744,89.81890082
744.5,89.79840279
745,89.74379897
745.5,89.69489932
746,90.18009901
746.5,90.62110186
747,90.7005012
747.5,90.47189951
748,90.32670259
748.5,90.37550092
749,90.56079984
749.5,90.7171011
750,90.64130187